##TITLE=VLL-084, X17443
##JCAMP-DX=4.24
##DATA TYPE=INFRARED SPECTRUM
##DATE=30/3/2021
##SAMPLING PROCEDURE=Diamant-ATR
##ORIGIN=Angelika Moesle
##XUNITS=1/CM
##YUNITS=TRANSMITTANCE
##RESOLUTION=4
##FIRSTX=3997.453
##LASTX=373.96442
##DELTAX=-1.4165319
##MAXY=0.93798923
##MINY=0.58307165
##XFACTOR=1
##YFACTOR=8.7357055e-010
##NPOINTS=2559
##FIRSTY=0.84878099
##XYDATA=(X++(Y..Y))
3997+971622715+971663585+971818538+971929960+971716806+971152876+970620742
3988+970520511+970808582+971103204+971189721+971162224+971087442+970898715
3978+970674030+970638004+970787976+970849998+970696547+970534771+970644418
3968+971127835+971886019+972643042+973017290+972758762+971972195+971023101
3958+970309949+970183722+970763891+971590237+971813762+971153149+970368151
3948+970227663+970356347+970036002+969595570+969949621+971037224+971911264
3938+972204521+972316284+972472055+972464959+972200837+971877353+971602246
3928+971371215+971375719+971811988+972379329+972483041+972051138+971677436
3918+971916586+972601558+973045333+972956086+972718779+972733107+972798950
3908+972343440+971187196+969912299+969494111+970384048+971995666+973374752
3898+973959424+973663711+972695785+971498739+970708009+970635753+970761707
3888+970711830+971100611+972307618+973153957+972666173+972043701+972623869
3878+973505210+973331153+972464004+971673820+970884933+970275220+970835329
3869+972302160+972975873+972519476+972138201+972480789+972809526+972358041
3859+971093924+969336838+967879559+968543447+972531689+976665468+977771425
3849+976613885+974736303+973110493+972300795+972323312+972513062+972307141
3839+972070038+972462571+973162690+973319826+972841254+972275550+971938761
3829+971660856+971290157+970828778+970195935+969593455+969831991+971106752
3819+972164538+972637106+973560068+974906335+975245239+974141124+972427091
3809+971145780+971118965+972105450+972728468+972696126+973289668+974782495
3799+975476747+974857004+974151495+973976823+973834698+973566482+973618474
3789+974016670+974281407+974309381+974361851+974203350+973382940+972376941
3779+972289060+973175313+973817435+973433636+972332932+971325705+971141481
3769+971780806+972419790+972606948+972633149+972521591+971966668+971250446
3759+971142232+971710528+972058575+971610911+970735302+970419392+971519140
3750+973249412+973876933+973443870+973386420+974375429+974966515+973983237
3740+972024118+970159500+969366382+970320798+972622164+974646102+975094584
3730+974103665+972739930+972093987+972606539+973779021+974773830+975255337
3720+975342536+975088716+974345953+973142153+972000510+971748601+972718097
3710+974064636+974760184+974581964+973701238+972601080+972157851+972865749
3700+973977096+974443114+974190113+973704172+973145496+972345350+971533332
3690+971646118+973154707+974826163+975364984+974883341+974063886+973355443
3680+972725602+971895844+971209917+971895366+973909274+975153400+975242032
3670+975813876+977311753+978020742+977174267+975676322+974379045+973456357
3660+972818123+972625712+973251663+974477025+975063607+974172442+972398366
3650+971243760+972047453+974140714+975545796+975798251+975754106+976120779
3640+976689076+976723192+976074996+975385112+975059787+974640848+973659276
3631+972768451+973263809+974777583+975354408+974731800+973873726+973337157
3621+973266401+973637237+974020218+973957173+973653544+973495999+973416851
3611+973269131+973362198+973971501+974666912+974841993+974530518+974149448
3601+973865402+973530592+973154844+973049017+973377754+973801128+973761964
3591+973152524+972592824+973005759+974417732+975508952+975371125+974450006
3581+973687660+973568801+973816071+973924149+973775814+973490950+973036326
3571+972458955+972306936+973278342+975036247+976010996+975525668+974562723
3561+974210583+974659202+975338442+975607545+975286382+974709011+974319411
3551+974134300+973857965+973527112+973536460+974018376+974607210+974902241
3541+974795869+974415549+974049626+973954989+974025199+973841248+973239655
3531+972648706+972680160+973403478+974200007+974479959+974284750+974030453
3521+973946460+973947347+973872225+973682406+973469798+973295809+973068258
3512+972745867+972621891+973062459+973916848+974639893+974989918+975149237
3502+975218628+975021168+974443319+973663165+973046697+972894610+973195168
3492+973668487+974100321+974496607+974855912+974972997+974657360+974110078
3482+973827261+974012644+974340836+974502271+974596975+974785020+974915478
3472+974724226+974195163+973574669+973082314+972689167+972275345+971934940
3462+971903077+972240001+972791445+973353874+973766467+974016602+974229824
3452+974412547+974406747+974192501+973937454+973714543+973474984+973260465
3442+973153615+973081086+972891881+972646454+972650002+973083474+973765170
3432+974450824+975140572+975845877+976315852+976226879+975502811+974486100
3422+973933633+974493673+975867028+976910213+976861769+976070084+975421821
3412+975403876+975785219+976030373+975926116+975741824+975754993+975809373
3403+975538496+974917866+974328964+974064022+974020764+973942366+973744565
3393+973501935+973278342+973083201+972883284+972612611+972228129+971818129
3383+971624557+971857703+972416925+972907097+973052497+973011149+973131781
3373+973450489+973615540+973409755+973177496+973476348+974368060+975343218
3363+975924683+976050706+975873101+975500832+975025671+974624745+974476479
3353+974530041+974517077+974325074+974175171+974260528+974436496+974445843
3343+974215018+973816071+973385942+973167603+973398770+974063954+974866761
3333+975483228+975774575+975757858+975499604+975094721+974666162+974318865
3323+974167802+974370380+974934992+975524849+975740664+975625831+975554598
3313+975616143+975464465+974836330+973887713+973026092+972698446+973230444
3303+974507661+975899574+976777231+976978239+976664854+976070766+975498717
3293+975184308+975103523+975173596+975458461+975879856+976065239+975823770
3284+975465488+975403193+975724289+976221693+976569535+976519317+976164516
3274+975858772+975738890+975586121+975213375+974731049+974437519+974560130
3264+974993398+975330869+975397394+975521438+975934782+976251306+976020753
3254+975482410+975283584+975637840+976133812+976305890+976180277+976184917
3244+976538899+976906255+976819397+976245847+975536517+975055079+975040204
3234+975525805+976218691+976728036+976967186+977037941+976849897+976299204
3224+975697065+975555826+975987320+976623097+977060867+977179043+977095255
3214+977019041+977126164+977421673+977681565+977655637+977346823+976977898
3204+976712684+976595395+976661101+976875483+977004713+976767473+976160899
3194+975542726+975327525+975590829+975999942+976154349+975963166+975673457
3184+975587008+975794430+976168337+976514132+976662534+976550430+976341985
3174+976293268+976420996+976575676+976808753+977255394+977700670+977739766
3165+977312094+976720531+976237591+975985204+976037265+976360543+976701016
3155+976723942+976358019+975927822+975846081+976169360+976544153+976613544
3145+976406258+976233020+976234111+976217531+976019320+975786788+975727086
3135+975779351+975752059+975680962+975804665+976174273+976498984+976504033
3125+976308347+976266112+976497620+976758535+976767542+976562985+976474762
3115+976691942+976942759+976797427+976243527+975751104+975757244+976245301
3105+976836387+977168399+977119955+976778254+976359520+976154008+976342326
3095+976777981+977038078+976800293+976178094+975614505+975393232+975370170
3085+975300983+975244556+975412678+975787471+976156737+976475103+976957633
3075+977716840+978438316+978587673+977917849+976620845+975091377+973776633
3065+973082177+973065666+973232354+972860836+971622988+969942798+968711842
3055+968480879+968947989+969402613+969515876+969463611+969467364+969552994
3046+969720160+970080693+970691839+971363710+971788107+971845831+971652259
3036+971334985+970924438+970463060+970116651+970148037+970709101+971601700
3026+972373461+972775274+972979217+973219254+973412348+973329856+972999072
3016+972687529+972519749+972327883+971942309+971455754+971093583+970979023
3006+971146121+971584301+972097467+972313896+972061987+971555780+971028900
2996+970448117+969801969+969360514+969366996+969744655+970302512+970956780
2986+971610161+972076929+972234134+972090234+971731544+971355454+971273918
2976+971716328+972589890+973467683+973852438+973520835+972665422+971713531
2966+970999151+970567044+970249906+969942184+969751615+969808383+970021196
2956+970187270+970310154+970630363+971279172+972008493+972373325+972217144
2946+971881584+971842010+972208820+972678045+972884580+972680092+972132742
2936+971403011+970629680+969846797+969021679+968210957+967586984+967223517
2927+966938175+966474955+965827646+965289167+965173720+965521084+966063726
2917+966474068+966663068+966822524+967148804+967594149+967995825+968377987
2907+968927520+969650428+970241991+970399878+970178536+969930858+969908478
2897+970060156+970272695+970577347+970953846+971194088+971180305+971071954
2887+971047254+971076457+971056738+970993420+970981002+971060764+971087306
2877+970792684+970090518+969237084+968585341+968279325+968240911+968330362
2867+968465527+968657939+968955768+969335883+969676902+969863036+969886030
2857+969831513+969795760+969823189+969862627+969778157+969494315+969136785
2847+968961021+969140060+969643537+970247791+970678602+970845427+970900080
2837+970986188+971061105+971065813+971083894+971181055+971281287+971371557
2827+971607295+972014703+972316625+972288446+972064921+971893661+971848560
2817+971935486+972189306+972528278+972751325+972744911+972545813+972225127
2808+971854291+971553256+971471924+971667065+972015862+972316693+972469531
2798+972514973+972559323+972671222+972757875+972628373+972326177+972185075
2788+972386835+972761969+973161325+973644674+974140714+974320981+974027723
2778+973561091+973339136+973429746+973602508+973711268+973820574+974003160
2768+974214199+974358098+974364921+974250157+974156953+974259095+974588992
2758+975012093+975359116+975525736+975482956+975284744+975095198+975116691
2748+975384908+975681576+975762157+975631972+975496124+975461667+975408993
2738+975177894+974779493+974367924+974082718+974003843+974172783+974551874
2728+975011615+975404217+975621328+975638386+975550845+975482205+975424072
2718+975285358+975076162+974909678+974840969+974817839+974796346+974816202
2708+974944408+975185878+975470810+975707709+975848947+975919361+975941264
2698+975841919+975553575+975194338+974975453+974940587+974988144+975072136
2689+975208053+975366144+975495578+975555758+975479612+975242032+974963308
2679+974824799+974858641+974894190+974761344+974511686+974385664+974566749
2669+975009500+975482887+975754856+975787061+975750967+975800230+975876581
2659+975829638+975642070+975429599+975285768+975214262+975179054+975168820
2649+975217264+975336122+975423936+975345061+975167114+975190654+975597515
2639+976166494+976532622+976633127+976693784+976884217+977192075+977559909
2629+977951828+978296736+978463288+978336856+977969841+977627458+977575875
2619+977840407+978278382+978795846+979323682+979701068+979790928+979661153
2609+979480955+979302871+979089513+978901741+978920709+979239348+979664360
2599+979813854+979526328+979119193+979055261+979369465+979642048+979570064
2589+979341354+979335281+979582687+979721605+979518413+979171458+978945204
2580+978782951+978565703+978463971+978656655+978903242+978786021+978334059
2570+978105143+978532679+979340399+979806280+979607318+979120763+978828120
2560+978777629+978789910+978855480+979079824+979415930+979638295+979569723
2550+979313788+979192337+979379017+979714100+979976176+980122599+980167495
2540+980129286+980173363+980439874+980709796+980656985+980388973+980321493
2530+980582545+980899410+981010490+980925611+980787306+980607927+980270661
2520+979868507+979821496+980340461+980989339+981131054+980611475+979770050
2510+979091765+978964923+979382975+979880516+980127785+980360930+980836433
2500+981301223+981477054+981560569+981758030+981809476+981432431+980869184
2490+980642725+980993774+981711360+982325166+982393193+981794260+980855674
2480+980116663+979880243+980007425+980196357+980369255+980620550+980873278
2470+980898523+980675135+980431072+980324836+980403302+980788330+981486129
2461+982088404+982164823+981881733+981711974+981661142+981386784+980930728
2451+980647706+980523662+980264179+979983135+980137542+980752781+981275704
2441+981302656+981028640+980823537+980723920+980592097+980503670+980628055
2431+980859768+980926702+980800475+980720986+980873278+981233879+981637943
2421+981881323+981895379+981809408+981682225+981326127+980654324+979995212
2411+979757017+979969011+980389588+980845644+981248275+981492679+981579264
2401+981669193+981839770+981925537+981777134+981533754+981450308+981585746
2391+981833084+982069777+982117949+981799037+981187140+980621505+980422611
2381+980706862+981341206+981915916+981984216+981504415+980889926+980634332
2371+981014311+981915234+982831509+983381451+983665156+983739323+983317246
2361+982457944+981840794+981981009+982684539+983341400+983501060+983203436
2351+982744992+982243289+981674447+981160599+981000119+981361266+981966203
2342+982352254+982462038+982654654+983058173+983257203+982952551+982506661
2332+982388280+982473569+982318753+981787301+981062619+980376282+979973037
2322+980078659+980621232+981120956+981133033+980718393+980278166+980071085
2312+980121439+980413195+980921858+981549447+982147356+982506729+982386438
2302+981752298+980948673+980476923+980581180+981082065+981576944+981782252
2292+981666873+981290374+980688303+980034240+979750945+980159171+981007693
2282+981636578+981699829+981447851+981233810+981109221+981001893+980961296
2272+981135012+981623137+982299307+982862827+983286951+983945586+984954655
2262+985739858+985664940+984781075+983706163+983020031+982881454+983092288
2252+983507201+984217964+985110972+985621068+985379189+984702268+983956980
2242+983023034+981960881+981526931+982355256+984151371+986089679+987463852
2232+987887840+987538224+987164932+987258613+987419775+987050031+986222866
2223+985334224+984441011+983514979+982931877+983138617+984036811+984966254
2213+985107220+983990755+982178947+981305112+982612555+985463522+987927141
2203+988669768+987802619+986234328+984832658+984066491+984039881+984626805
2193+985428997+985871544+985797923+985736515+986034411+986055631+985047517
2183+983489598+982527949+982387120+982622449+983444838+985207451+987095814
2173+987947542+987758133+987200617+986807810+987324797+989148068+990919687
2163+990711582+988950129+987966579+988588846+989663758+990892668+992970917
2153+995293776+995982568+994145925+990989556+988490184+987611299+987898962
2143+988238684+987893025+987057673+986423806+986277177+986414800+986764552
2133+987372627+987896573+987897597+987524919+987293957+987323228+987279151
2123+986966448+986553582+986279020+986306722+986814770+987840146+988973328
2113+989515901+989113065+988121395+987256566+986977979+987257044+987790679
2104+988241140+988312374+987825818+986860758+985787483+985111518+985199400
2094+986087495+987522872+989086591+990227961+990424193+989582836+988185054
2084+986919300+986339882+986727025+987734729+988287060+987616553+986378091
2074+985961199+986805559+988115322+989027844+989375141+989440097+989477692
2064+989405094+988754716+987092675+984744435+983031631+983393528+985923399
2054+988936756+990480211+990164574+989048450+988095740+987395826+986759503
2044+986181586+985562798+984830270+984458069+985003577+986204375+987498377
2034+989183207+991724950+994065548+994239333+991795023+988373372+985928517
2024+985331700+986591245+989371934+992764246+994974318+994357236+991423642
2014+988917856+988985200+991111689+993324627+994453305+994604505+994464973
2004+994903289+996128719+996820650+995482639+992916060+991728498+992995003
1994+994984211+995550666+994591883+993558864+993064326+992100971+989767606
1985+986869014+985117249+985207178+986463107+987929802+988939690+989096076
1975+988818580+989433751+991605000+993984422+994406362+992509061+990293804
1965+989617770+990298784+991256748+992139658+993149478+994106487+994357441
1955+993403093+991535609+989812092+989121867+989353716+989798992+990157956
1945+990643829+991359368+992154533+993006602+994026452+995049236+995597131
1935+995348088+994522560+993733945+993447648+993540510+993479648+993082748
1925+992817329+993066919+993556135+994035595+994872995+996205206+997192851
1915+997019544+995917749+994643329+993763899+993502710+993769494+994333492
1905+995094541+996070518+997124142+997876321+997931588+997199537+996080070
1895+995318202+995484686+996542609+997946463+998981392+999146306+998537685
1885+997773429+997459839+997647543+997834769+997690528+997523294+997731671
1875+998118746+998151838+997673061+997000371+996531624+996459435+996718850
1866+997110291+997468709+997770017+998146312+998686019+999209488+999444817
1856+999407290+999346223+999359050+999305148+999093018+998875565+998939225
1846+999458327+1000232067+1000671748+1000445289+999837828+999287749+998997085
1836+998949664+999119559+999539249+1000212416+1001054319+1001908368+1002695549
1826+1003413204+1003941448+1004165997+1004300958+1004671111+1005272432
1817+1005839432+1006215863+1006420760+1006542826+1006744926+1007151652
1809+1007675120+1008141821+1008467965+1008641886+1008766544+1009091734
1800+1009765379+1010577397+1011160158+1011376587+1011431854+1011702868
1792+1012298866+1012805414+1012922293+1012900937+1013136130+1013743932
1783+1014529886+1015372198+1016399280+1017607175+1018639647+1019232916
1775+1019612349+1020332323+1021669857+1023128159+1024099906+1024609728
1766+1024962415+1025390701+1026177473+1027526947+1029032807+1030077492
1758+1030841203+1031931535+1033460525+1035216997+1037293132+1039830918
1749+1042440824+1044582051+1046343436+1048197206+1050385444+1052813924
1741+1055328443+1057691080+1059521856+1060901624+1062635376+1065283833
1732+1067977595+1069895161+1071368542+1072619900+1073480293+1073741823
1724+1073108707+1071382734+1068833144+1065973034+1062971482+1058423609
1715+1048929052+1031974521+1007308105+976501099+943092852+911404506+885111530
1706+867007237+857627718+855334813+859250185+867964519+876743059+883362359
1696+889497901+894984292+898502490+900646173+902552276+904250138+905584874
1686+907730673+912068121+916915460+919807161+921213130+922234481+923490547
1676+925389758+927616956+929293803+930542295+932297198+934301076+935132403
1666+934807350+934749490+936035100+938179602+939728925+940053295+939469783
1656+938717331+939221832+942295914+945454193+946257341+946145920+946778899
1646+948155665+949015240+949199532+949396720+949824120+950346360+951182327
1636+952868726+954879359+955799455+955611478+955300276+955619393+956534098
1626+957503048+958410384+959534832+960652798+961223005+961346162+961646788
1616+962344178+962801940+962658109+962217882+961714405+961177836+960829380
1606+961103191+962180492+963797909+965488470+966902490+968025505+969137399
1596+970496425+972045134+973482830+974597726+975439561+976228721+977193508
1587+978437156+979930938+981601985+983297800+984729834+985782912+986949799
1577+989106583+992094489+994556607+996244507+998103940+1000596557+1002354462
1567+1001201357+996198042+988279009+979688855+972733176+970226844+973494361
1557+976385311+973941138+966122200+954269373+940876025+929157341+921665775
1547+918888362+919711023+922676004+926586190+931407328+937256777+941743993
1537+943593123+944371912+945792756+948178591+950417320+951901073+953153795
1527+954690290+956291946+957566025+958823728+960540967+962364988+963885518
1517+965397040+966975770+968164356+968723987+968790307+968616727+968892449
1507+970869717+974127409+976349695+977414031+978394716+979965122+982535250
1497+986369153+990838219+994504547+996384790+995282313+988341576+973434318
1487+954376701+938273079+928988878+926390230+928256486+932038738+936156756
1477+940175361+944036625+947559326+950332987+951425434+949993537+946428328
1468+942076141+938831686+938444270+940644927+943484362+945941363+948519678
1458+952234723+956535258+959536811+961179133+962392758+963661651+965014332
1448+966260095+967200933+967940694+968823263+969874294+970623198+970693817
1438+970197505+969272701+967474403+964123780+958708622+950971084+941779950
1428+933463812+928337272+927488136+930305465+934894618+939936961+945160185
1418+949699939+952362861+953518217+954372129+955697586+957624363+959907920
1408+962374472+965161302+968342097+971332324+973016744+972176478+967775780
1398+960189850+951955453+945981005+943488661+943788332+945868083+949863284
1388+956748207+966732868+978302058+989208111+996388884+994775834+979874579
1378+953342386+923591938+900049629+887767083+885763205+889751857+896267855
1368+903426589+909964831+915371528+920034029+924245114+927343896+928443985
1358+927521501+925336470+923011496+921695114+922071886+924072285+927075611
1349+930334395+933348570+935962161+938161657+939971827+941575598+943245212
1339+945015604+946673482+948124620+949421829+950516869+951283377+951719305
1329+951972511+952215550+952555409+952918535+952939891+952181434+950716172
1319+949390238+949172649+950232209+951905917+953366949+954002999+953159868
1309+949726890+942597973+932297880+921934264+915516860+914975515+919105609
1299+925220340+931220784+936190394+939955384+942671730+944625595+946086900
1289+947251945+948262652+949183430+950006024+950784403+951682529+952787736
1279+953991536+955136658+956143885+956948875+957493222+957830830+958121903
1269+958480731+958899123+959332050+959764362+960107768+960117116+959647072
1259+958992600+958702618+959029922+959799773+960753234+961769331+962773283
1249+963653464+964366342+965021701+965771083+966643008+967554916+968434755
1239+969241315+969927787+970504408+971092355+971828295+972753099+973806587
1230+974794504+975254313+974500155+972097057+968433732+964647181+961813272
1220+960273092+959762383+959949882+960691280+961910570+963464532+965147587
1210+966759205+968158147+969337043+970456169+971722878+973192712+974747493
1200+976240866+977565777+978635162+979424391+980013703+980509470+980984289
1190+981555998+982494448+984122509+986363217+988259836+988187511+985012378
1180+979344083+973490404+969494929+966665114+961493200+950957642+935975329
1170+921042416+910631721+906371237+907168449+910964211+916028320+921255229
1160+926076163+930359094+934169458+937497974+940297631+942677666+944867338
1150+947022347+949137715+951098266+952815437+954360939+955940829+957688090
1140+959208278+959121488+955766021+949357760+943009611+940351056+942227614
1130+946585600+951002129+953926444+953696846+948489179+938762432+928807043
1120+923910304+925718086+931450928+937412276+941928217+945113447+947425320
1111+949089544+950276082+951245509+952224556+953220252+954057652+954587739
1101+954827776+954984503+955324225+955909307+956543241+957032526+957372385
1091+957671237+958020717+958407655+958708281+958830347+958820317+958777331
1081+958743420+958723974+958765186+958976975+959408059+959894137+960202405
1071+960338048+960487952+960712637+960957245+961254733+961636485+961988080
1061+962244697+962565929+963091922+963690172+964166425+964548246+964917785
1051+965150521+965089045+964822262+964555478+964346964+964090893+963496464
1041+961997223+959154581+955516227+952728238+952282143+954201756+957255983
1031+960278755+962903468+965203673+967165999+968671858+969654044+969925331
1021+968909916+966079556+962109941+959198726+959249695+961372295+961880070
1011+957630094+949409957+941499862+937826711+939018503+943053824+947622371
1001+951221492+953003073+953004096+952506692+953139535+955310238+958007889
992+960151641+961591385+962797778+964143909+965640011+967061810+968210616
982+969091616+969837722+970524195+971121421+971559738+971785446+971763953
972+971434534+970724453+969505301+967200524+962736302+955913128+948950080
962+945422807+947034151+952168061+957893329+962451642+965546193+967405831
952+968442602+969274407+970331715+971511771+972460320+973033870+973360219
942+973630755+973985147+974532292+975325615+976232951+976933753+977195078
932+977128348+977085771+977352350+977966907+978765552+979527215+980088211
922+980437281+980768065+981311662+982097206+982996082+983839964+984330750
912+983779852+980099947+968849191+946380089+917010779+894195473+889601066
902+901989438+920276113+935399050+945569094+952523613+957584584+961379800
892+964452927+967152080+969508439+971423139+972885467+974018922+974951026
882+975716988+976293882+976635105+976674338+976413013+976061146+976029418
873+976645749+977852074+979275101+980540242+981416806+981861741+982118563
863+982577280+983361255+984200019+984780052+985074264+985313960+985771585
853+986606188+987796547+989149364+990414095+991442746+992275438+993143678
843+994341543+995909561+997479080+998661729+999545321+1000540608+1001817688
833+1003165388+1004365573+1005483948+1006690955+1007854363+1008505356
824+1008310761+1007231755+1004581319+997879255+983865551+962293823+938755404
815+922004952+917370425+923235772+933958146+944950716+954520805+962418754
805+968435438+972531075+975308625+977678085+979906785+981047813+979872191
795+976988951+975290817+977098053+981511306+985898836+989078608+991502994
785+993326606+994008439+993275501+991196364+987300848+980046863+967290179
775+947615480+921411751+890448018+856495901+820850767+785325447+753095551
765+727697016+710865983+701452826+696278387+691905458+686170979+679015110
755+672200737+667923196+667457996+670884901+677459578+685954140+695161035
745+704554132+714412770+725256596+737240767+750024744+763044117+775789679
735+787855318+798982099+809235180+818937159+828254451+836934329+844502109
725+850676338+855638305+859929629+864046896+868151472+872154520+875955468
715+879652568+883624980+887748047+889911927+886694355+877496944+867234856
705+862503783+865270620+872161343+879257715+885324070+890772389+895741384
696+899754257+902414108+904003142+905347362+907071151+909085196+910734068
686+911333682+910894138+910546841+911802157+914965076+918668180+921403017
676+923120871+924663438+926130133+926943448+927263997+928362381+930655285
666+932546241+933356280+933697981+934260069+935524595+937485829+939433553
656+940572465+940899292+941024428+941312568+941641578+941826143+941958511
646+942324639+943049185+943958159+944883167+945864876+946925255+947988363
636+949095207+950279562+951318380+952118457+953095526+954601590+956280347
626+957536617+958374358+959215920+959966871+959827202+958424031+956959656
616+957390944+960095487+963394732+965653111+966613600+966426715+964585636
606+960220009+952507033+940779001+925530382+909712785+897835804+892804787
596+894026328+898784557+904568027+910008430+914798046+919373553+924124345
586+928570008+931740773+933471522+934708825+936359197+938399784+940270065
577+941696777+942900236+944179023+945499567+946562197+947209574+947654440
567+948190941+948835588+949605098+950882247+952827992+954664294+955447655
557+955365369+955343466+955689671+955947380+955653850+954723451+953666552
547+953514601+954739963+956419129+957150703+956333977+954148672+951147529
537+948405596+947309191+948499686+951213713+953968406+955862091+957028501
527+957838472+958263415+958490488+959296433+961067165+963220879+964962818
517+965883459+965696916+964523546+963418817+963401623+964149367+964777366
507+965540940+967385157+970047669+971870803+971544318+969370885+966507569
497+963805210+961892693+961468228+962832166+965455651+968364000+970808923
487+972654573+974449733+976778390+979155151+980324632+979772028+977945551
477+975165203+970506182+960693600+941494335+914778327+892405840+886437260
467+897959848+916631687+928533163+924972798+906673637+882990295+866824719
458+866708249+879984853+897297188+912912412+925616081+935478880+942920569
448+948215504+951391796+953228576+955001083+956799244+957616380+957186251
438+956509126+956579881+956760762+954913270+949507459+940236359+925969586
428+903304797+868580373+823073872+777014222+744876301+737398040+758137758
418+795761592+830671605+856807444+877107072+893487234+906867618+918150511
408+927667447+935992592+944032053+951367506+956704949+959786195+960648227
398+958174441+953070144+949798669+950906264+954408701+957183658+958423280
388+959517365+960950013+960440054+955955499+949704988+945203444+943794609
378+946470836+954331327+963594580+965946027
##END=
